O(n log n)
34 0.988
134 4.997
234 10.962
334 17.394
434 24.427
534 31.944
634 38.813
734 46.806
834 53.589
934 61.12
1034 67.14
1134 75.37
1234 82.63
1334 91.494
1434 98.796
1534 107.176
1634 118.006
1734 128.826
1834 138.3
1934 146.253
2034 150.181
2134 155.603
2234 165.055
2334 179.449
2434 178.919
2534 187.545
2634 196.606
2734 204.946
2834 213.606
2934 222.263
3034 231.761
3134 243.713
3234 251.299
3334 263.645
3434 269.837
3534 277.493
3634 286.475
3734 295.746
3834 305.264
3934 314.531
4034 324.742
4134 327.547
4234 337.531
4334 345.769
4434 355.266
4534 364.11
4634 374.53
4734 383.734
4834 392.539
4934 402.65
5034 411.539
5134 421.179
5234 430.764
5334 441.132
5434 451.311
5534 460.856
5634 469.79
5734 480.467
5834 489.723
5934 500.142
6034 508.725
6134 519.311
6234 529.52
6334 538.731
6434 549.323
6534 559.109
6634 569.164
6734 580.238
6834 589.043
6934 599.476
7034 609.045
7134 619.003
7234 630.887
7334 640.728
7434 651.565
7534 662.117
7634 672.311
7734 681.888
7834 693.432
7934 703.362
8034 713.678
8134 724.809
8234 723.118
8334 733.607
8434 742.674
8534 751.788
8634 761.47
8734 773.883
8834 785.529
8934 792.011
9034 802.639
9134 812.862
9234 825.319
9334 833.951
9434 844.474
9534 855.705
9634 865.93
9734 875.185
9834 888.018
9934 897.418
